# omega, Ix+Iy+Iz, Ix, Iy, Iz, I-, I+, omega+ecore
  357.83254   0.0126719   0.0042240   0.0042240   0.0042240   0.0042240   0.0042240    -5.86844
  357.85975   0.0125371   0.0041790   0.0041790   0.0041790   0.0041790   0.0041790    -5.84123
  357.88696   0.0124101   0.0041367   0.0041367   0.0041367   0.0041367   0.0041367    -5.81402
  357.91417   0.0122904   0.0040968   0.0040968   0.0040968   0.0040968   0.0040968    -5.78681
  357.94139   0.0121779   0.0040593   0.0040593   0.0040593   0.0040593   0.0040593    -5.75959
  357.96860   0.0120723   0.0040241   0.0040241   0.0040241   0.0040241   0.0040241    -5.73238
  357.99581   0.0119733   0.0039911   0.0039911   0.0039911   0.0039911   0.0039911    -5.70517
  358.02302   0.0118806   0.0039602   0.0039602   0.0039602   0.0039602   0.0039602    -5.67796
  358.05023   0.0117942   0.0039314   0.0039314   0.0039314   0.0039314   0.0039314    -5.65075
  358.07744   0.0117137   0.0039046   0.0039046   0.0039046   0.0039046   0.0039046    -5.62354
  358.10466   0.0116390   0.0038797   0.0038797   0.0038797   0.0038797   0.0038797    -5.59632
  358.13187   0.0115698   0.0038566   0.0038566   0.0038566   0.0038566   0.0038566    -5.56911
  358.15908   0.0115061   0.0038354   0.0038354   0.0038354   0.0038354   0.0038354    -5.54190
  358.18629   0.0114476   0.0038159   0.0038159   0.0038159   0.0038159   0.0038159    -5.51469
  358.21350   0.0113943   0.0037981   0.0037981   0.0037981   0.0037981   0.0037981    -5.48748
  358.24071   0.0113459   0.0037820   0.0037820   0.0037820   0.0037820   0.0037820    -5.46027
  358.26793   0.0113023   0.0037674   0.0037674   0.0037674   0.0037674   0.0037674    -5.43306
  358.29514   0.0112635   0.0037545   0.0037545   0.0037545   0.0037545   0.0037545    -5.40584
  358.32235   0.0112294   0.0037431   0.0037431   0.0037431   0.0037431   0.0037431    -5.37863
  358.34956   0.0111997   0.0037332   0.0037332   0.0037332   0.0037332   0.0037332    -5.35142
  358.37677   0.0111746   0.0037249   0.0037249   0.0037249   0.0037249   0.0037249    -5.32421
  358.40398   0.0111538   0.0037179   0.0037179   0.0037179   0.0037179   0.0037179    -5.29700
  358.43120   0.0111373   0.0037124   0.0037124   0.0037124   0.0037124   0.0037124    -5.26979
  358.45841   0.0111250   0.0037083   0.0037083   0.0037083   0.0037083   0.0037083    -5.24257
  358.48562   0.0111170   0.0037057   0.0037057   0.0037057   0.0037057   0.0037057    -5.21536
  358.51283   0.0111131   0.0037044   0.0037044   0.0037044   0.0037044   0.0037044    -5.18815
  358.54004   0.0111134   0.0037045   0.0037045   0.0037045   0.0037045   0.0037045    -5.16094
  358.56725   0.0111181   0.0037060   0.0037060   0.0037060   0.0037060   0.0037060    -5.13373
  358.59446   0.0111260   0.0037087   0.0037087   0.0037087   0.0037087   0.0037087    -5.10652
  358.62168   0.0111385   0.0037128   0.0037128   0.0037128   0.0037128   0.0037128    -5.07930
  358.64889   0.0111551   0.0037184   0.0037184   0.0037184   0.0037184   0.0037184    -5.05209
  358.67610   0.0111757   0.0037252   0.0037252   0.0037252   0.0037252   0.0037252    -5.02488
  358.70331   0.0112004   0.0037335   0.0037335   0.0037335   0.0037335   0.0037335    -4.99767
  358.73052   0.0112292   0.0037431   0.0037431   0.0037431   0.0037431   0.0037431    -4.97046
  358.75773   0.0112622   0.0037541   0.0037541   0.0037541   0.0037541   0.0037541    -4.94325
  358.78495   0.0112994   0.0037665   0.0037665   0.0037665   0.0037665   0.0037665    -4.91603
  358.81216   0.0113408   0.0037803   0.0037803   0.0037803   0.0037803   0.0037803    -4.88882
  358.83937   0.0113866   0.0037955   0.0037955   0.0037955   0.0037955   0.0037955    -4.86161
  358.86658   0.0114371   0.0038124   0.0038124   0.0038124   0.0038124   0.0038124    -4.83440
  358.89379   0.0114920   0.0038307   0.0038307   0.0038307   0.0038307   0.0038307    -4.80719
  358.92100   0.0115514   0.0038505   0.0038505   0.0038505   0.0038505   0.0038505    -4.77998
  358.94822   0.0116156   0.0038719   0.0038719   0.0038719   0.0038719   0.0038719    -4.75277
  358.97543   0.0116846   0.0038949   0.0038949   0.0038949   0.0038949   0.0038949    -4.72555
  359.00264   0.0117585   0.0039195   0.0039195   0.0039195   0.0039195   0.0039195    -4.69834
  359.02985   0.0118376   0.0039459   0.0039459   0.0039459   0.0039459   0.0039459    -4.67113
  359.05706   0.0119219   0.0039739   0.0039739   0.0039740   0.0039739   0.0039739    -4.64392
  359.08427   0.0120115   0.0040038   0.0040038   0.0040038   0.0040038   0.0040038    -4.61671
  359.11149   0.0121067   0.0040356   0.0040356   0.0040356   0.0040356   0.0040356    -4.58950
  359.13870   0.0122076   0.0040692   0.0040692   0.0040692   0.0040692   0.0040692    -4.56228
  359.16591   0.0123145   0.0041048   0.0041048   0.0041048   0.0041048   0.0041048    -4.53507
  359.19312   0.0124275   0.0041425   0.0041425   0.0041425   0.0041425   0.0041425    -4.50786
  359.22033   0.0125469   0.0041823   0.0041823   0.0041823   0.0041823   0.0041823    -4.48065
  359.24754   0.0126729   0.0042243   0.0042243   0.0042243   0.0042243   0.0042243    -4.45344
  359.27475   0.0128057   0.0042686   0.0042686   0.0042686   0.0042686   0.0042686    -4.42623
  359.30197   0.0129457   0.0043152   0.0043152   0.0043152   0.0043152   0.0043152    -4.39901
  359.32918   0.0130932   0.0043644   0.0043644   0.0043644   0.0043644   0.0043644    -4.37180
  359.35639   0.0132484   0.0044161   0.0044161   0.0044161   0.0044161   0.0044161    -4.34459
  359.38360   0.0134117   0.0044706   0.0044706   0.0044706   0.0044706   0.0044706    -4.31738
  359.41081   0.0135836   0.0045279   0.0045279   0.0045279   0.0045279   0.0045279    -4.29017
  359.43802   0.0137643   0.0045881   0.0045881   0.0045881   0.0045881   0.0045881    -4.26296
  359.46524   0.0139543   0.0046514   0.0046514   0.0046514   0.0046514   0.0046514    -4.23574
  359.49245   0.0141541   0.0047180   0.0047180   0.0047180   0.0047180   0.0047180    -4.20853
  359.51966   0.0143642   0.0047881   0.0047881   0.0047881   0.0047881   0.0047881    -4.18132
  359.54687   0.0145850   0.0048617   0.0048617   0.0048617   0.0048617   0.0048617    -4.15411
  359.57408   0.0148173   0.0049391   0.0049391   0.0049391   0.0049391   0.0049391    -4.12690
  359.60129   0.0150614   0.0050205   0.0050205   0.0050205   0.0050205   0.0050205    -4.09969
  359.62851   0.0153182   0.0051061   0.0051061   0.0051061   0.0051061   0.0051061    -4.07248
  359.65572   0.0155883   0.0051961   0.0051961   0.0051961   0.0051961   0.0051961    -4.04526
  359.68293   0.0158724   0.0052908   0.0052908   0.0052908   0.0052908   0.0052908    -4.01805
  359.71014   0.0161714   0.0053905   0.0053905   0.0053905   0.0053905   0.0053905    -3.99084
  359.73735   0.0164862   0.0054954   0.0054954   0.0054954   0.0054954   0.0054954    -3.96363
  359.76456   0.0168177   0.0056059   0.0056059   0.0056059   0.0056059   0.0056059    -3.93642
  359.79178   0.0171669   0.0057223   0.0057223   0.0057223   0.0057223   0.0057223    -3.90921
  359.81899   0.0175349   0.0058450   0.0058450   0.0058450   0.0058450   0.0058450    -3.88199
  359.84620   0.0179228   0.0059743   0.0059743   0.0059743   0.0059743   0.0059743    -3.85478
  359.87341   0.0183321   0.0061107   0.0061107   0.0061107   0.0061107   0.0061107    -3.82757
  359.90062   0.0187640   0.0062547   0.0062547   0.0062547   0.0062547   0.0062547    -3.80036
  359.92783   0.0192201   0.0064067   0.0064067   0.0064067   0.0064067   0.0064067    -3.77315
  359.95504   0.0197019   0.0065673   0.0065673   0.0065673   0.0065673   0.0065673    -3.74594
  359.98226   0.0202114   0.0067371   0.0067371   0.0067371   0.0067371   0.0067371    -3.71872
  360.00947   0.0207503   0.0069168   0.0069168   0.0069168   0.0069168   0.0069168    -3.69151
  360.03668   0.0213208   0.0071069   0.0071069   0.0071069   0.0071069   0.0071069    -3.66430
  360.06389   0.0219251   0.0073084   0.0073084   0.0073084   0.0073084   0.0073084    -3.63709
  360.09110   0.0225659   0.0075220   0.0075220   0.0075220   0.0075220   0.0075220    -3.60988
  360.11831   0.0232457   0.0077486   0.0077486   0.0077486   0.0077486   0.0077486    -3.58267
  360.14553   0.0239675   0.0079892   0.0079892   0.0079892   0.0079892   0.0079892    -3.55545
  360.17274   0.0247347   0.0082449   0.0082449   0.0082449   0.0082449   0.0082449    -3.52824
  360.19995   0.0255508   0.0085169   0.0085169   0.0085169   0.0085169   0.0085169    -3.50103
  360.22716   0.0264198   0.0088066   0.0088066   0.0088066   0.0088066   0.0088066    -3.47382
  360.25437   0.0273461   0.0091154   0.0091154   0.0091154   0.0091154   0.0091154    -3.44661
  360.28158   0.0283344   0.0094448   0.0094448   0.0094448   0.0094448   0.0094448    -3.41940
  360.30880   0.0293902   0.0097967   0.0097967   0.0097967   0.0097967   0.0097967    -3.39219
  360.33601   0.0305194   0.0101731   0.0101731   0.0101731   0.0101731   0.0101731    -3.36497
  360.36322   0.0317287   0.0105762   0.0105762   0.0105762   0.0105762   0.0105762    -3.33776
  360.39043   0.0330256   0.0110085   0.0110085   0.0110085   0.0110085   0.0110085    -3.31055
  360.41764   0.0344186   0.0114729   0.0114729   0.0114729   0.0114729   0.0114729    -3.28334
  360.44485   0.0359171   0.0119724   0.0119724   0.0119724   0.0119724   0.0119724    -3.25613
  360.47207   0.0375321   0.0125107   0.0125107   0.0125107   0.0125107   0.0125107    -3.22892
  360.49928   0.0392761   0.0130920   0.0130920   0.0130920   0.0130920   0.0130920    -3.20170
  360.52649   0.0411635   0.0137212   0.0137212   0.0137211   0.0137212   0.0137212    -3.17449
  360.55370   0.0432110   0.0144037   0.0144037   0.0144037   0.0144037   0.0144037    -3.14728
  360.58091   0.0454385   0.0151462   0.0151462   0.0151461   0.0151462   0.0151462    -3.12007
  360.60812   0.0478691   0.0159564   0.0159564   0.0159564   0.0159564   0.0159564    -3.09286
  360.63533   0.0505308   0.0168436   0.0168436   0.0168436   0.0168436   0.0168436    -3.06565
  360.66255   0.0534567   0.0178189   0.0178189   0.0178189   0.0178189   0.0178189    -3.03843
  360.68976   0.0566865   0.0188955   0.0188955   0.0188955   0.0188955   0.0188955    -3.01122
  360.71697   0.0602668   0.0200889   0.0200889   0.0200889   0.0200889   0.0200889    -2.98401
  360.74418   0.0642504   0.0214168   0.0214168   0.0214168   0.0214168   0.0214168    -2.95680
  360.77139   0.0686929   0.0228976   0.0228976   0.0228976   0.0228976   0.0228976    -2.92959
  360.79860   0.0736419   0.0245473   0.0245473   0.0245473   0.0245473   0.0245473    -2.90238
  360.82582   0.0791198   0.0263733   0.0263733   0.0263733   0.0263733   0.0263733    -2.87516
  360.85303   0.0850997   0.0283666   0.0283666   0.0283665   0.0283666   0.0283666    -2.84795
  360.88024   0.0914908   0.0304970   0.0304970   0.0304969   0.0304970   0.0304970    -2.82074
  360.90745   0.0981647   0.0327216   0.0327216   0.0327215   0.0327216   0.0327216    -2.79353
  360.93466   0.1050279   0.0350093   0.0350093   0.0350093   0.0350093   0.0350093    -2.76632
  360.96187   0.1121004   0.0373668   0.0373668   0.0373668   0.0373668   0.0373668    -2.73911
  360.98909   0.1195308   0.0398436   0.0398436   0.0398436   0.0398436   0.0398436    -2.71190
  361.01630   0.1275459   0.0425153   0.0425153   0.0425153   0.0425153   0.0425153    -2.68468
  361.04351   0.1363875   0.0454625   0.0454625   0.0454625   0.0454625   0.0454625    -2.65747
  361.07072   0.1462803   0.0487601   0.0487601   0.0487601   0.0487601   0.0487601    -2.63026
  361.09793   0.1574302   0.0524768   0.0524768   0.0524767   0.0524768   0.0524768    -2.60305
  361.12514   0.1700370   0.0566791   0.0566791   0.0566789   0.0566791   0.0566791    -2.57584
  361.15236   0.1843115   0.0614372   0.0614372   0.0614371   0.0614372   0.0614372    -2.54863
  361.17957   0.2004880   0.0668294   0.0668294   0.0668292   0.0668294   0.0668294    -2.52141
  361.20678   0.2188367   0.0729456   0.0729456   0.0729455   0.0729456   0.0729456    -2.49420
  361.23399   0.2396712   0.0798904   0.0798904   0.0798903   0.0798904   0.0798904    -2.46699
  361.26120   0.2633584   0.0877862   0.0877862   0.0877860   0.0877862   0.0877862    -2.43978
  361.28841   0.2903258   0.0967753   0.0967753   0.0967751   0.0967753   0.0967753    -2.41257
  361.31562   0.3210678   0.1070227   0.1070227   0.1070224   0.1070227   0.1070227    -2.38536
  361.34284   0.3561542   0.1187182   0.1187182   0.1187179   0.1187182   0.1187182    -2.35814
  361.37005   0.3962306   0.1320770   0.1320770   0.1320766   0.1320770   0.1320770    -2.33093
  361.39726   0.4420149   0.1473384   0.1473384   0.1473381   0.1473384   0.1473384    -2.30372
  361.42447   0.4942879   0.1647628   0.1647628   0.1647624   0.1647628   0.1647628    -2.27651
  361.45168   0.5538609   0.1846204   0.1846204   0.1846200   0.1846204   0.1846204    -2.24930
  361.47889   0.6215259   0.2071754   0.2071754   0.2071750   0.2071754   0.2071754    -2.22209
  361.50611   0.6979600   0.2326536   0.2326536   0.2326529   0.2326536   0.2326536    -2.19487
  361.53332   0.7836017   0.2612007   0.2612007   0.2612002   0.2612007   0.2612007    -2.16766
  361.56053   0.8784447   0.2928151   0.2928151   0.2928145   0.2928151   0.2928151    -2.14045
  361.58774   0.9817956   0.3272655   0.3272655   0.3272646   0.3272655   0.3272655    -2.11324
  361.61495   1.0919619   0.3639875   0.3639875   0.3639869   0.3639875   0.3639875    -2.08603
  361.64216   1.2058926   0.4019644   0.4019644   0.4019638   0.4019644   0.4019644    -2.05882
  361.66938   1.3187678   0.4395895   0.4395895   0.4395888   0.4395895   0.4395895    -2.03161
  361.69659   1.4236588   0.4745531   0.4745532   0.4745525   0.4745531   0.4745531    -2.00439
  361.72380   1.5119285   0.5039763   0.5039763   0.5039759   0.5039763   0.5039763    -1.97718
  361.75101   1.5757153   0.5252385   0.5252385   0.5252383   0.5252385   0.5252385    -1.94997
  361.77822   1.6117740   0.5372580   0.5372580   0.5372580   0.5372580   0.5372580    -1.92276
  361.80543   1.6225370   0.5408457   0.5408457   0.5408456   0.5408457   0.5408457    -1.89555
  361.83265   1.6132370   0.5377456   0.5377456   0.5377459   0.5377456   0.5377456    -1.86834
  361.85986   1.5862448   0.5287481   0.5287481   0.5287486   0.5287481   0.5287481    -1.84112
  361.88707   1.5338492   0.5112828   0.5112828   0.5112835   0.5112828   0.5112828    -1.81391
  361.91428   1.4529227   0.4843073   0.4843074   0.4843080   0.4843074   0.4843074    -1.78670
  361.94149   1.3618120   0.4539372   0.4539371   0.4539377   0.4539372   0.4539372    -1.75949
  361.96870   1.2742236   0.4247410   0.4247410   0.4247416   0.4247410   0.4247410    -1.73228
  361.99591   1.1926295   0.3975429   0.3975429   0.3975436   0.3975429   0.3975429    -1.70507
  362.02313   1.1165875   0.3721957   0.3721957   0.3721962   0.3721957   0.3721957    -1.67785
  362.05034   1.0462565   0.3487520   0.3487520   0.3487525   0.3487520   0.3487520    -1.65064
  362.07755   0.9817520   0.3272505   0.3272505   0.3272510   0.3272505   0.3272505    -1.62343
  362.10476   0.9228693   0.3076229   0.3076229   0.3076235   0.3076229   0.3076229    -1.59622
  362.13197   0.8693359   0.2897785   0.2897785   0.2897789   0.2897785   0.2897785    -1.56901
  362.15918   0.8208277   0.2736091   0.2736091   0.2736095   0.2736091   0.2736091    -1.54180
  362.18640   0.7769829   0.2589942   0.2589942   0.2589945   0.2589942   0.2589942    -1.51458
  362.21361   0.7374177   0.2458058   0.2458058   0.2458061   0.2458058   0.2458058    -1.48737
  362.24082   0.7017544   0.2339180   0.2339180   0.2339183   0.2339180   0.2339180    -1.46016
  362.26803   0.6696281   0.2232093   0.2232093   0.2232095   0.2232093   0.2232093    -1.43295
  362.29524   0.6406988   0.2135662   0.2135662   0.2135664   0.2135662   0.2135662    -1.40574
  362.32245   0.6146571   0.2048856   0.2048856   0.2048858   0.2048856   0.2048856    -1.37853
  362.34967   0.5912196   0.1970732   0.1970732   0.1970733   0.1970732   0.1970732    -1.35132
  362.37688   0.5701344   0.1900448   0.1900448   0.1900449   0.1900448   0.1900448    -1.32410
  362.40409   0.5511774   0.1837258   0.1837258   0.1837259   0.1837258   0.1837258    -1.29689
  362.43130   0.5341492   0.1780497   0.1780497   0.1780498   0.1780497   0.1780497    -1.26968
  362.45851   0.5188750   0.1729583   0.1729583   0.1729584   0.1729583   0.1729583    -1.24247
  362.48572   0.5052011   0.1684004   0.1684004   0.1684004   0.1684004   0.1684004    -1.21526
  362.51294   0.4929933   0.1643311   0.1643311   0.1643311   0.1643311   0.1643311    -1.18805
  362.54015   0.4821341   0.1607114   0.1607114   0.1607114   0.1607114   0.1607114    -1.16083
  362.56736   0.4725232   0.1575077   0.1575077   0.1575077   0.1575077   0.1575077    -1.13362
  362.59457   0.4640733   0.1546911   0.1546911   0.1546911   0.1546911   0.1546911    -1.10641
  362.62178   0.4567107   0.1522369   0.1522369   0.1522368   0.1522369   0.1522369    -1.07920
  362.64899   0.4503731   0.1501244   0.1501244   0.1501244   0.1501244   0.1501244    -1.05199
  362.67620   0.4450096   0.1483366   0.1483366   0.1483365   0.1483366   0.1483366    -1.02478
  362.70342   0.4405795   0.1468598   0.1468598   0.1468598   0.1468598   0.1468598    -0.99756
  362.73063   0.4370520   0.1456840   0.1456840   0.1456840   0.1456840   0.1456840    -0.97035
  362.75784   0.4344057   0.1448019   0.1448019   0.1448018   0.1448019   0.1448019    -0.94314
  362.78505   0.4326291   0.1442098   0.1442098   0.1442096   0.1442098   0.1442098    -0.91593
  362.81226   0.4317201   0.1439068   0.1439068   0.1439066   0.1439068   0.1439068    -0.88872
  362.83947   0.4316868   0.1438957   0.1438957   0.1438955   0.1438957   0.1438957    -0.86151
  362.86669   0.4325475   0.1441826   0.1441826   0.1441824   0.1441826   0.1441826    -0.83429
  362.89390   0.4343326   0.1447776   0.1447776   0.1447774   0.1447776   0.1447776    -0.80708
  362.92111   0.4370839   0.1456947   0.1456947   0.1456945   0.1456947   0.1456947    -0.77987
  362.94832   0.4408584   0.1469529   0.1469529   0.1469527   0.1469529   0.1469529    -0.75266
  362.97553   0.4457284   0.1485762   0.1485762   0.1485759   0.1485762   0.1485762    -0.72545
  363.00274   0.4517842   0.1505948   0.1505948   0.1505946   0.1505948   0.1505948    -0.69824
  363.02996   0.4591376   0.1530460   0.1530460   0.1530456   0.1530460   0.1530460    -0.67103
  363.05717   0.4679251   0.1559751   0.1559752   0.1559748   0.1559752   0.1559752    -0.64381
  363.08438   0.4783120   0.1594375   0.1594375   0.1594370   0.1594375   0.1594375    -0.61660
  363.11159   0.4904977   0.1634994   0.1634994   0.1634989   0.1634994   0.1634994    -0.58939
  363.13880   0.5047223   0.1682410   0.1682410   0.1682403   0.1682410   0.1682410    -0.56218
  363.16601   0.5212758   0.1737588   0.1737588   0.1737581   0.1737588   0.1737588    -0.53497
  363.19323   0.5405049   0.1801686   0.1801686   0.1801678   0.1801686   0.1801686    -0.50776
  363.22044   0.5628267   0.1876092   0.1876092   0.1876083   0.1876092   0.1876092    -0.48054
  363.24765   0.5887387   0.1962466   0.1962466   0.1962455   0.1962466   0.1962466    -0.45333
  363.27486   0.6188378   0.2062797   0.2062797   0.2062784   0.2062797   0.2062797    -0.42612
  363.30207   0.6538349   0.2179455   0.2179455   0.2179439   0.2179455   0.2179455    -0.39891
  363.32928   0.6945675   0.2315231   0.2315231   0.2315214   0.2315231   0.2315231    -0.37170
  363.35649   0.7420204   0.2473408   0.2473408   0.2473389   0.2473408   0.2473408    -0.34449
  363.38371   0.7973270   0.2657764   0.2657764   0.2657743   0.2657764   0.2657764    -0.31727
  363.41092   0.8617585   0.2872537   0.2872537   0.2872512   0.2872537   0.2872537    -0.29006
  363.43813   0.9366807   0.3122281   0.3122281   0.3122246   0.3122281   0.3122281    -0.26285
